Mg(OH)2 brine, frozen & cushed NIR reflectance spectra at at 77K digitized from Brown & Hand (2013)
Grain size b/w <63 um - 600 um (unclear which grain size bin is plotted)
Digitized 2/28/2021 by Ryleigh Davis
Wavelength (um)          Relative Reflectance (1 at 1.8 um)
1.408205637533106014e+00 9.028115413507710185e-01
1.409618173792407392e+00 9.289105166957331017e-01
1.411383844116534059e+00 9.681361956165636107e-01
1.417740257283389926e+00 1.003346647561246030e+00
1.423037268255769705e+00 1.017245510170989409e+00
1.429393681422625573e+00 1.026511418577484847e+00
1.435750094589481440e+00 1.031453236394282325e+00
1.442106507756337308e+00 1.035159599756880322e+00
1.448462920923193176e+00 1.038865963119478319e+00
1.454819334090049043e+00 1.041336872027877281e+00
1.461175747256904911e+00 1.045043235390475278e+00
1.467532160423760779e+00 1.045043235390475278e+00
1.473888573590616424e+00 1.045043235390475278e+00
1.480244986757472292e+00 1.046278689844674759e+00
1.486601399924328160e+00 1.048749598753073720e+00
1.492957813091184027e+00 1.051220507661472237e+00
1.499314226258039895e+00 1.053691416569871198e+00
1.505670639424895763e+00 1.056162325478269715e+00
1.512027052591751630e+00 1.056162325478269715e+00
1.518383465758607498e+00 1.059868688840868156e+00
1.524739878925463366e+00 1.059868688840868156e+00
1.531096292092319011e+00 1.059868688840868156e+00
1.537452705259175101e+00 1.059868688840868156e+00
1.543809118426030746e+00 1.059868688840868156e+00
1.550165531592886614e+00 1.059868688840868156e+00
1.556521944759742482e+00 1.059868688840868156e+00
1.562878357926598349e+00 1.059868688840868156e+00
1.569234771093454217e+00 1.059868688840868156e+00
1.575591184260310085e+00 1.059868688840868156e+00
1.581947597427165952e+00 1.059868688840868156e+00
1.588304010594021598e+00 1.059868688840868156e+00
1.594660423760877688e+00 1.059868688840868156e+00
1.601016836927733333e+00 1.059868688840868156e+00
1.607373250094589201e+00 1.056162325478269715e+00
1.613729663261445069e+00 1.056162325478269715e+00
1.620086076428300936e+00 1.056162325478269715e+00
1.626442489595156804e+00 1.053691416569871198e+00
1.632798902762012672e+00 1.052455962115671717e+00
1.639155315928868539e+00 1.052455962115671717e+00
1.647630533484676363e+00 1.048749598753073720e+00
1.653986946651532008e+00 1.048749598753073720e+00
1.660343359818387876e+00 1.047514144298874239e+00
1.666699772985243744e+00 1.045043235390475278e+00
1.673056186152099611e+00 1.043190053709176279e+00
1.679412599318955479e+00 1.041336872027877281e+00
1.685769012485811347e+00 1.041336872027877281e+00
1.692125425652667214e+00 1.037630508665279283e+00
1.698481838819523082e+00 1.037630508665279283e+00
1.704838251986378950e+00 1.035159599756880322e+00
1.711194665153234595e+00 1.033924145302680841e+00
1.717551078320090685e+00 1.031453236394282325e+00
1.723907491486946331e+00 1.030217781940082844e+00
1.730263904653802198e+00 1.026511418577484847e+00
1.736620317820658066e+00 1.026511418577484847e+00
1.742976730987513934e+00 1.022805055214886405e+00
1.749333144154369801e+00 1.019716419079387926e+00
1.755689557321225669e+00 1.016627782943889446e+00
1.762045970488081537e+00 1.015392328489689966e+00
1.768402383654937182e+00 1.011685965127091968e+00
1.774758796821793272e+00 1.010450510672892488e+00
1.781115209988648918e+00 1.007979601764493971e+00
1.787471623155504785e+00 1.005508692856095010e+00
1.793828036322360653e+00 1.004273238401895529e+00
1.800184449489216520e+00 1.000566875039297532e+00
1.806540862656072388e+00 9.993314205850981624e-01
1.812897275822928256e+00 9.956250572224999429e-01
1.819253688989784123e+00 9.931541483141012039e-01
1.825610102156639769e+00 9.894477849515029844e-01
1.830907113129019770e+00 9.875946032702039856e-01
1.838322928490351504e+00 9.857414215889047648e-01
1.844679341657207594e+00 9.857414215889047648e-01
1.851035754824063240e+00 9.820350582263067674e-01
1.857392167990919107e+00 9.807996037721072868e-01
1.863748581157774975e+00 9.770932404095092894e-01
1.870104994324630843e+00 9.721514225927115893e-01
1.876461407491486710e+00 9.653564230946148905e-01
1.882817820658342356e+00 9.585614235965184138e-01
1.889174233825198446e+00 9.548550602339201943e-01
1.895530646992054091e+00 9.492955151900229760e-01
1.901887060158910181e+00 9.418827884648267590e-01
1.908243473325765827e+00 9.338523345125305797e-01
1.914599886492621694e+00 9.270573350144341029e-01
1.920956299659477562e+00 9.202623355163371821e-01
1.927312712826333430e+00 9.165559721537391846e-01
1.933669125993189297e+00 9.140850632453404456e-01
1.940025539160044943e+00 9.116141543369417066e-01
1.946381952326901033e+00 9.116141543369417066e-01
1.952738365493756678e+00 9.079077909743434871e-01
1.959094778660612768e+00 9.103786998827422261e-01
1.965451191827468413e+00 9.116141543369417066e-01
1.971807604994324281e+00 9.116141543369417066e-01
1.978164018161180149e+00 9.116141543369417066e-01
1.984520431328036016e+00 9.103786998827422261e-01
1.990876844494891884e+00 9.079077909743434871e-01
1.997233257661747752e+00 9.042014276117452676e-01
2.003589670828603619e+00 9.004950642491472701e-01
2.009946083995459265e+00 8.967887008865490506e-01
2.016302497162315355e+00 8.943177919781500895e-01
2.022658910329171000e+00 8.930823375239508310e-01
2.029015323496026646e+00 8.930823375239508310e-01
2.034312334468406647e+00 8.930823375239508310e-01
2.041728149829738825e+00 8.893759741613526115e-01
2.048084562996594471e+00 8.893759741613526115e-01
2.054440976163450117e+00 8.856696107987546140e-01
2.060797389330306206e+00 8.856696107987546140e-01
2.067683503594400118e+00 8.838164291174553933e-01
2.073510215664017942e+00 8.850518835716548738e-01
2.079866628830873587e+00 8.856696107987546140e-01
2.086223041997729677e+00 8.856696107987546140e-01
2.092579455164585323e+00 8.856696107987546140e-01
2.098935868331441412e+00 8.856696107987546140e-01
2.105292281498297058e+00 8.844341563445551335e-01
2.111648694665152703e+00 8.819632474361563945e-01
2.118005107832008793e+00 8.819632474361563945e-01
2.124361520998864439e+00 8.819632474361563945e-01
2.130717934165720528e+00 8.819632474361563945e-01
2.137074347332576174e+00 8.819632474361563945e-01
2.143430760499432264e+00 8.856696107987546140e-01
2.149787173666287909e+00 8.838164291174553933e-01
2.156143586833143999e+00 8.813455202090566543e-01
2.162499999999999645e+00 8.751682479380599178e-01
2.168856413166855290e+00 8.652846123044647397e-01
2.174153424139235291e+00 8.541655222166700812e-01
2.178391032917139203e+00 8.430464321288756446e-01
2.182628641695043115e+00 8.319273420410812081e-01
2.186866250472947026e+00 8.189550702719875508e-01
2.191103859250850938e+00 8.069093893435436149e-01
2.195341468028754850e+00 7.957902992557491784e-01
2.200638479001134851e+00 7.855978000086042412e-01
2.206994892167990496e+00 7.744787099208098047e-01
2.213351305334846586e+00 7.658305287414141072e-01
2.219707718501702232e+00 7.559468931078189291e-01
2.226064131668557877e+00 7.460632574742237511e-01
2.232420544835413967e+00 7.374150762948280535e-01
2.238776958002270057e+00 7.281491678883326157e-01
2.245133371169125702e+00 7.213541683902361390e-01
2.251489784335981348e+00 7.157946233463389207e-01
2.257846197502836993e+00 7.108528055295412207e-01
2.264202610669693083e+00 7.077641693940427414e-01
2.270559023836549173e+00 7.040578060314447439e-01
2.276915437003404818e+00 6.991159882146472659e-01
2.283271850170260464e+00 6.929387159436500854e-01
2.289628263337116554e+00 6.818196258558556488e-01
2.294925274309496110e+00 6.697739449274117129e-01
2.299162883087400466e+00 6.577282639989675550e-01
2.303400491865303934e+00 6.466091739111731185e-01
2.307638100643208290e+00 6.336369021420796832e-01
2.311875709421111758e+00 6.225178120542850246e-01
2.317172720393491758e+00 6.120164491935903284e-01
2.323529133560347404e+00 6.089278130580918491e-01
2.328826144532727405e+00 6.178848578510375278e-01
2.333063753310631760e+00 6.317837204607804624e-01
2.336241959894059583e+00 6.447559922298741197e-01
2.339420166477487406e+00 6.595814456802667758e-01
2.342598373060915229e+00 6.744068991306594318e-01
2.345776579644343052e+00 6.892323525810520879e-01
2.350014188422246963e+00 7.059109877127437427e-01
2.354251797200150875e+00 7.207364411631363987e-01
2.358489405978054787e+00 7.309289404102813359e-01
2.363786416950434788e+00 7.411214396574262731e-01
2.370142830117290877e+00 7.472987119284232316e-01
2.376499243284146523e+00 7.485341663826224901e-01
2.382855656451002169e+00 7.485341663826224901e-01
2.389212069617857814e+00 7.435923485658250121e-01
2.395568482784713904e+00 7.355618946135290548e-01
2.400865493757093905e+00 7.225896228444353975e-01
2.404043700340521728e+00 7.114705327566409609e-01
2.406162504729473461e+00 7.022046243501455232e-01
2.408281309118425639e+00 6.892323525810520879e-01
2.410400113507377817e+00 6.744068991306594318e-01
2.412518917896329551e+00 6.632878090428649953e-01
2.412518917896329551e+00 6.540219006363695575e-01
2.414637722285281285e+00 6.447559922298741197e-01
2.414637722285281285e+00 6.354900838233786819e-01
2.416756526674233463e+00 6.262241754168832442e-01
2.416756526674233463e+00 6.151050853290888076e-01
2.418875331063185641e+00 6.039859952412943711e-01
2.418875331063185641e+00 5.928669051534999346e-01
2.420994135452137375e+00 5.817478150657052760e-01
2.420994135452137375e+00 5.669223616153126200e-01
2.423112939841089108e+00 5.558032715275181834e-01
2.423112939841089108e+00 5.446841814397237469e-01
2.425231744230041286e+00 5.335650913519293104e-01
2.425231744230041286e+00 5.242991829454338726e-01
2.427350548618993464e+00 5.150332745389384348e-01
2.427350548618993464e+00 5.057673661324429970e-01
2.429469353007945198e+00 4.927950943633495617e-01
2.431588157396896932e+00 4.779696409129569057e-01
2.433706961785849110e+00 4.668505508251624692e-01
2.436885168369276933e+00 4.520250973747698131e-01
2.440063374952704756e+00 4.371996439243771571e-01
2.442182179341656934e+00 4.279337355178817193e-01
2.444300983730608667e+00 4.186678271113862815e-01
2.447479190314036934e+00 4.038423736609936254e-01
2.451716799091940402e+00 3.871637385293019706e-01
2.455954407869844758e+00 3.723382850789093146e-01
2.460192016647748225e+00 3.575128316285166585e-01
2.464429625425652581e+00 3.426873781781240025e-01
2.468667234203556049e+00 3.278619247277313464e-01
2.471845440786983872e+00 3.167428346399369099e-01
2.475023647370411695e+00 3.046971537114929740e-01
2.480320658342791695e+00 2.932692000101485563e-01
2.485617669315171696e+00 2.963578361456470356e-01
2.491974082482027342e+00 3.167428346399369099e-01
2.497800794551645609e+00 3.297151064090303452e-01
