KCl brine, frozen & cushed NIR reflectance spectra at at 77K digitized from Brown & Hand (2013)
Grain size b/w <63 um - 600 um (unclear which grain size bin is plotted)
Digitized 2/28/2021 by Ryleigh Davis
Wavelength (um)          Relative Reflectance (1 at 1.8 um)
1.402908626560726235e+00 1.210870565187320391e+00
1.409265039727582103e+00 1.197126134384352003e+00
1.413502648505486015e+00 1.180756362866210551e+00
1.417740257283389926e+00 1.162224546053219676e+00
1.421977866061293838e+00 1.139986365877630803e+00
1.425156072644721661e+00 1.123307730745938926e+00
1.427274877033673617e+00 1.110335458976845047e+00
1.429393681422625573e+00 1.097363187207751611e+00
1.431512485811577529e+00 1.084390915438658176e+00
1.433631290200529484e+00 1.069565461988265298e+00
1.435750094589481440e+00 1.056593190219171863e+00
1.437868898978433396e+00 1.043620918450078427e+00
1.439987703367385352e+00 1.028795464999685549e+00
1.442106507756337308e+00 1.013970011549293115e+00
1.444225312145289264e+00 9.991445580989006814e-01
1.446344116534241220e+00 9.861722863298068020e-01
1.448462920923193176e+00 9.732000145607133668e-01
1.450581725312145132e+00 9.583745611103209328e-01
1.452700529701097087e+00 9.454022893412270534e-01
1.454819334090049043e+00 9.324300175721336181e-01
1.457997540673476866e+00 9.138982007591427426e-01
1.462235149451380778e+00 8.916600205835538695e-01
1.466472758229284690e+00 8.703484312486144958e-01
1.470710367007188601e+00 8.518166144356236202e-01
1.474947975785092513e+00 8.360645701445812428e-01
1.479185584562996425e+00 8.212391166941888088e-01
1.484482595535376204e+00 8.057959360166964125e-01
1.491898410896708160e+00 7.911249143730785249e-01
1.500373628452515984e+00 7.832488922275575582e-01
1.508848846008323585e+00 7.823223013869080589e-01
1.517324063564131409e+00 7.851020739088565570e-01
1.525799281119939232e+00 7.860286647495060564e-01
1.534274498675747056e+00 7.897350281121044979e-01
1.541690314037078791e+00 7.897350281121044979e-01
1.551224933787362703e+00 7.934413914747024954e-01
1.559700151343170305e+00 7.952945731560014941e-01
1.568175368898978128e+00 8.008541181998989344e-01
1.576650586454785952e+00 8.087301403454199011e-01
1.585125804010593775e+00 8.198492304332143377e-01
1.593601021566401599e+00 8.314316159413337459e-01
1.602076239122209422e+00 8.420874106088032107e-01
1.610551456678017246e+00 8.495001373339996498e-01
1.619026674233825069e+00 8.527432052762731196e-01
1.627501891789632893e+00 8.481102510730256228e-01
1.635977109345440494e+00 8.416241151884786831e-01
1.644452326901248318e+00 8.360645701445812428e-01
1.652927544457056142e+00 8.402342289275042120e-01
1.660343359818387876e+00 8.515077508220736391e-01
1.666699772985243744e+00 8.638622953640675561e-01
1.674115588346575478e+00 8.786877488144604342e-01
1.682590805902383302e+00 8.925866114242033689e-01
1.691066023458191125e+00 9.060221786136217759e-01
1.699541241013998949e+00 9.176045641217411841e-01
1.708016458569806773e+00 9.305768358908346194e-01
1.716491676125614596e+00 9.435491076599280547e-01
1.724966893681422420e+00 9.555947885883719906e-01
1.733442111237230243e+00 9.671771740964913988e-01
1.741917328793038067e+00 9.750531962420123655e-01
1.750392546348845890e+00 9.820026275468838328e-01
1.758867763904653492e+00 9.870988771704563014e-01
1.767342981460461315e+00 9.908052405330547430e-01
1.775818199016269139e+00 9.935850130550032411e-01
1.784293416572076962e+00 9.972913764176012386e-01
1.792768634127884564e+00 9.991445580989006814e-01
1.801243851683692387e+00 1.000997739780199680e+00
1.809719069239500211e+00 1.004704103142797678e+00
1.818194286795308034e+00 1.007483875664746176e+00
1.826669504351115858e+00 1.008410466505395675e+00
1.835144721906923682e+00 1.008410466505395675e+00
1.843619939462731505e+00 1.008410466505395675e+00
1.852095157018539329e+00 1.003314216881823207e+00
1.860570374574347152e+00 9.940483084753282128e-01
1.867986189935678887e+00 9.812304685130093240e-01
1.873283200908058888e+00 9.694936511981149252e-01
1.878580211880438444e+00 9.534327432935230107e-01
1.883877222852818445e+00 9.361363809347316156e-01
1.888114831630722357e+00 9.213109274843391816e-01
1.893411842603102357e+00 9.046322923526473048e-01
1.898708853575482136e+00 8.879536572209554279e-01
1.904005864547861915e+00 8.718927493163635134e-01
1.910362277714717782e+00 8.527432052762731196e-01
1.916718690881573650e+00 8.354468429174817246e-01
1.923075104048429518e+00 8.206213894670888465e-01
1.929431517215285385e+00 8.070313904708958930e-01
1.936847332576617120e+00 7.934413914747024954e-01
1.945322550132424944e+00 7.800058242852840884e-01
1.953797767688232767e+00 7.693500296178146236e-01
1.962272985244040591e+00 7.600841212113191858e-01
1.970748202799848414e+00 7.535979853267722461e-01
1.979223420355656238e+00 7.480384402828752499e-01
1.987698637911464061e+00 7.452586677609263077e-01
1.996173855467271885e+00 7.415523043983283102e-01
2.004649073023079708e+00 7.415523043983283102e-01
2.013124290578887532e+00 7.434054860796273090e-01
2.021599508134695355e+00 7.452586677609263077e-01
2.030074725690502735e+00 7.480384402828752499e-01
2.038549943246310558e+00 7.508182128048237480e-01
2.047025160802118382e+00 7.526713944861227468e-01
2.055500378357926206e+00 7.563777578487211883e-01
2.063975595913734029e+00 7.610107120519686852e-01
2.072450813469541853e+00 7.642537799942421550e-01
2.080926031025349676e+00 7.730563929804126211e-01
2.089401248581157500e+00 7.823223013869080589e-01
2.097876466136965323e+00 7.934413914747024954e-01
2.106351683692773147e+00 8.064136632437959307e-01
2.113767499054104881e+00 8.206213894670888465e-01
2.120123912220960527e+00 8.329759340090827635e-01
2.126480325387816617e+00 8.453304785510766806e-01
2.133896140749148351e+00 8.601559320014695587e-01
2.142371358304956175e+00 8.749813854518619927e-01
2.150846575860763998e+00 8.879536572209554279e-01
2.159321793416571822e+00 8.995360427290748362e-01
2.167797010972379645e+00 9.092652465558952457e-01
2.176272228528187469e+00 9.180678595420657118e-01
2.184747446083995293e+00 9.268704725282361778e-01
2.193222663639803116e+00 9.365996763550565873e-01
2.201697881195610940e+00 9.454022893412270534e-01
2.210173098751418319e+00 9.542049023273975195e-01
2.218648316307226143e+00 9.620809244729189302e-01
2.227123533863033966e+00 9.694936511981149252e-01
2.235598751418841790e+00 9.741266054013628661e-01
2.244073968974649613e+00 9.787595596046108071e-01
2.252549186530457437e+00 9.759797870826618649e-01
2.261024404086265260e+00 9.713468328794143680e-01
2.269499621642073084e+00 9.634708107338934013e-01
2.277974839197880907e+00 9.509618343851244937e-01
2.286450056753688287e+00 9.389161534566801137e-01
2.294925274309496110e+00 9.254805862672621508e-01
2.303400491865303934e+00 9.134349053388177708e-01
2.311875709421111758e+00 9.023158152510237784e-01
2.320350926976919581e+00 8.925866114242033689e-01
2.328826144532727405e+00 8.842472938583574305e-01
2.337301362088535228e+00 8.772978625534859631e-01
2.345776579644343052e+00 8.731282037705629939e-01
2.354251797200150875e+00 8.684952495673154971e-01
2.362727014755958699e+00 8.638622953640675561e-01
2.371555366376592033e+00 8.613913864556685951e-01
2.379677449867574346e+00 8.601559320014695587e-01
2.388152667423382169e+00 8.601559320014695587e-01
2.396627884979189993e+00 8.573761594795206165e-01
2.405103102534997817e+00 8.564495686388711171e-01
2.413578320090805640e+00 8.564495686388711171e-01
2.422053537646613464e+00 8.545963869575721183e-01
2.430528755202421287e+00 8.527432052762731196e-01
2.438650838693403600e+00 8.515077508220736391e-01
2.447479190314036934e+00 8.490368419136746780e-01
2.455954407869844758e+00 8.481102510730256228e-01
2.464429625425652581e+00 8.453304785510766806e-01
2.472904842981459961e+00 8.444038877104271812e-01
2.481380060537267784e+00 8.416241151884786831e-01
2.489855278093075608e+00 8.416241151884786831e-01
2.497271093454407342e+00 8.422418424155782013e-01
